Export File Created with QBlade v0.963 32bit on 02.12.2021 at 07:47:27
                 200 RPM (5 TSR)                 200 RPM (6 TSR)                 200 RPM (7 TSR)                 200 RPM (8 TSR)
 V [m/s] P [W] V [m/s] P [W] V [m/s] P [W] V [m/s] P [W]
     1.00000e+00     0.00000e+00     1.00000e+00     0.00000e+00     1.00000e+00     0.00000e+00     1.00000e+00     0.00000e+00
     1.50000e+00     0.00000e+00     1.50000e+00     0.00000e+00     1.50000e+00     0.00000e+00     1.50000e+00     1.02779e+00
     2.00000e+00     4.99907e-01     2.00000e+00     4.46909e+00     2.00000e+00     6.93742e+00     2.00000e+00     8.60546e+00
     2.50000e+00     1.22192e+01     2.50000e+00     1.65492e+01     2.50000e+00     1.95522e+01     2.50000e+00     2.34477e+01
     3.00000e+00     2.95022e+01     3.00000e+00     3.50545e+01     3.00000e+00     3.83446e+01     3.00000e+00     3.78666e+01
     3.50000e+00     5.44992e+01     3.50000e+00     6.25162e+01     3.50000e+00     6.21702e+01     3.50000e+00     5.85386e+01
     4.00000e+00     8.86649e+01     4.00000e+00     9.50202e+01     4.00000e+00     9.06589e+01     4.00000e+00     7.97556e+01
     4.50000e+00     1.32569e+02     4.50000e+00     1.33841e+02     4.50000e+00     1.17424e+02     4.50000e+00     9.58146e+01
     5.00000e+00     1.91757e+02     5.00000e+00     1.71728e+02     5.00000e+00     1.35604e+02     5.00000e+00     1.03500e+02
     5.50000e+00     2.43369e+02     5.50000e+00     1.94286e+02     5.50000e+00     1.41663e+02     5.50000e+00     1.05902e+02
     6.00000e+00     2.86997e+02     6.00000e+00     2.01831e+02     6.00000e+00     1.43181e+02     6.00000e+00     1.06233e+02
     6.50000e+00     3.04775e+02     6.50000e+00     2.02145e+02     6.50000e+00     1.41797e+02     6.50000e+00     1.04554e+02
     7.00000e+00     3.05350e+02     7.00000e+00     1.98223e+02     7.00000e+00     1.38404e+02     7.00000e+00     1.01756e+02
     7.50000e+00     2.99440e+02     7.50000e+00     1.90858e+02     7.50000e+00     1.31813e+02     7.50000e+00     9.62685e+01
     8.00000e+00     2.83367e+02     8.00000e+00     1.77961e+02     8.00000e+00     1.22558e+02     8.00000e+00     8.92391e+01
     8.50000e+00     2.59982e+02     8.50000e+00     1.62059e+02     8.50000e+00     1.11068e+02     8.50000e+00     8.05479e+01
     9.00000e+00     2.31519e+02     9.00000e+00     1.44539e+02     9.00000e+00     9.89383e+01     9.00000e+00     7.19447e+01
     9.50000e+00     2.00864e+02     9.50000e+00     1.26477e+02     9.50000e+00     8.71439e+01     9.50000e+00     6.40083e+01
     1.00000e+01     1.73514e+02     1.00000e+01     1.16155e+02     1.00000e+01     8.42095e+01     1.00000e+01     6.37180e+01

