Export File Created with QBlade v0.963 32bit on 02.12.2021 at 07:53:27
                 500 RPM (5 TSR)                 500 RPM (6 TSR)                 500 RPM (7 TSR)                 500 RPM (8 TSR)
 V [m/s] P [W] V [m/s] P [W] V [m/s] P [W] V [m/s] P [W]
     1.00000e+00     0.00000e+00     1.00000e+00     0.00000e+00     1.00000e+00     0.00000e+00     1.00000e+00     0.00000e+00
     1.50000e+00     0.00000e+00     1.50000e+00     0.00000e+00     1.50000e+00     0.00000e+00     1.50000e+00     0.00000e+00
     2.00000e+00     0.00000e+00     2.00000e+00     0.00000e+00     2.00000e+00     0.00000e+00     2.00000e+00     0.00000e+00
     2.50000e+00     0.00000e+00     2.50000e+00     0.00000e+00     2.50000e+00     0.00000e+00     2.50000e+00     0.00000e+00
     3.00000e+00     0.00000e+00     3.00000e+00     0.00000e+00     3.00000e+00     0.00000e+00     3.00000e+00     0.00000e+00
     3.50000e+00     0.00000e+00     3.50000e+00     0.00000e+00     3.50000e+00     0.00000e+00     3.50000e+00     2.16819e-01
     4.00000e+00     0.00000e+00     4.00000e+00     0.00000e+00     4.00000e+00     1.05806e+01     4.00000e+00     3.42070e+01
     4.50000e+00     0.00000e+00     4.50000e+00     1.61657e+01     4.50000e+00     5.43206e+01     4.50000e+00     7.82602e+01
     5.00000e+00     7.81105e+00     5.00000e+00     6.98295e+01     5.00000e+00     1.08397e+02     5.00000e+00     1.34460e+02
     5.50000e+00     7.30025e+01     5.50000e+00     1.34660e+02     5.50000e+00     1.75453e+02     5.50000e+00     2.07090e+02
     6.00000e+00     1.46803e+02     6.00000e+00     2.13317e+02     6.00000e+00     2.58399e+02     6.00000e+00     2.87440e+02
     6.50000e+00     2.35906e+02     6.50000e+00     3.06758e+02     6.50000e+00     3.58386e+02     6.50000e+00     4.16199e+02
     7.00000e+00     3.41496e+02     7.00000e+00     4.17781e+02     7.00000e+00     4.79396e+02     7.00000e+00     4.80190e+02
     7.50000e+00     4.60973e+02     7.50000e+00     5.47726e+02     7.50000e+00     5.99135e+02     7.50000e+00     5.91666e+02
     8.00000e+00     6.01714e+02     8.00000e+00     6.98013e+02     8.00000e+00     7.95876e+02     8.00000e+00     7.13146e+02
     8.50000e+00     7.64505e+02     8.50000e+00     8.80573e+02     8.50000e+00     8.90168e+02     8.50000e+00     8.45965e+02
     9.00000e+00     9.45695e+02     9.00000e+00     1.07792e+03     9.00000e+00     1.05564e+03     9.00000e+00     9.84342e+02
     9.50000e+00     1.14706e+03     9.50000e+00     1.33071e+03     9.50000e+00     1.23284e+03     9.50000e+00     1.12265e+03
     1.00000e+01     1.38539e+03     1.00000e+01     1.48469e+03     1.00000e+01     1.41655e+03     1.00000e+01     1.24618e+03

