Export File Created with QBlade v0.963 32bit on 02.12.2021 at 08:44:51
                 200 RPM (TSR 5)                 200 RPM (TSR 6)                 200 RPM (TSR 7)                 200 RPM (TSR 8)
 V [m/s] P [W] V [m/s] P [W] V [m/s] P [W] V [m/s] P [W]
     1.00000e+00     0.00000e+00     1.00000e+00     0.00000e+00     1.00000e+00     0.00000e+00     1.00000e+00     0.00000e+00
     1.50000e+00     0.00000e+00     1.50000e+00     0.00000e+00     1.50000e+00     0.00000e+00     1.50000e+00     9.16068e-01
     2.00000e+00     0.00000e+00     2.00000e+00     4.08967e+00     2.00000e+00     6.83766e+00     2.00000e+00     8.63600e+00
     2.50000e+00     1.15427e+01     2.50000e+00     1.61540e+01     2.50000e+00     1.91829e+01     2.50000e+00     2.15632e+01
     3.00000e+00     2.88818e+01     3.00000e+00     3.40856e+01     3.00000e+00     3.82361e+01     3.00000e+00     3.92047e+01
     3.50000e+00     5.27209e+01     3.50000e+00     5.95508e+01     3.50000e+00     6.62252e+01     3.50000e+00     6.08205e+01
     4.00000e+00     8.50383e+01     4.00000e+00     9.60009e+01     4.00000e+00     9.31327e+01     4.00000e+00     8.55430e+01
     4.50000e+00     1.27421e+02     4.50000e+00     1.35478e+02     4.50000e+00     1.26823e+02     4.50000e+00     1.10092e+02
     5.00000e+00     1.82069e+02     5.00000e+00     1.81682e+02     5.00000e+00     1.59048e+02     5.00000e+00     1.26317e+02
     5.50000e+00     2.46191e+02     5.50000e+00     2.29630e+02     5.50000e+00     1.75838e+02     5.50000e+00     1.32168e+02
     6.00000e+00     3.17745e+02     6.00000e+00     2.52061e+02     6.00000e+00     1.77241e+02     6.00000e+00     1.30991e+02
     6.50000e+00     3.76477e+02     6.50000e+00     2.49176e+02     6.50000e+00     1.73357e+02     6.50000e+00     1.27261e+02
     7.00000e+00     3.81224e+02     7.00000e+00     2.40443e+02     7.00000e+00     1.65975e+02     7.00000e+00     1.21503e+02
     7.50000e+00     3.61449e+02     7.50000e+00     2.27044e+02     7.50000e+00     1.56663e+02     7.50000e+00     1.14888e+02
     8.00000e+00     3.36728e+02     8.00000e+00     2.12173e+02     8.00000e+00     1.46807e+02     8.00000e+00     1.08060e+02
     8.50000e+00     3.11174e+02     8.50000e+00     1.98006e+02     8.50000e+00     1.38173e+02     8.50000e+00     1.02222e+02
     9.00000e+00     2.87408e+02     9.00000e+00     1.85253e+02     9.00000e+00     1.30480e+02     9.00000e+00     9.67396e+01
     9.50000e+00     2.66479e+02     9.50000e+00     1.73572e+02     9.50000e+00     1.22993e+02     9.50000e+00     9.17138e+01
     1.00000e+01     2.45141e+02     1.00000e+01     1.65437e+02     1.00000e+01     1.21040e+02     1.00000e+01     9.25386e+01

