Export File Created with QBlade v0.963 32bit on 02.12.2021 at 08:47:20
                 300 RPM (TSR 5)                 300 RPM (TSR 6)                 300 RPM (TSR 7)                 300 RPM (TSR 8)
 V [m/s] P [W] V [m/s] P [W] V [m/s] P [W] V [m/s] P [W]
     1.00000e+00     0.00000e+00     1.00000e+00     0.00000e+00     1.00000e+00     0.00000e+00     1.00000e+00     0.00000e+00
     1.50000e+00     0.00000e+00     1.50000e+00     0.00000e+00     1.50000e+00     0.00000e+00     1.50000e+00     0.00000e+00
     2.00000e+00     0.00000e+00     2.00000e+00     0.00000e+00     2.00000e+00     0.00000e+00     2.00000e+00     0.00000e+00
     2.50000e+00     0.00000e+00     2.50000e+00     0.00000e+00     2.50000e+00     4.39898e+00     2.50000e+00     1.02050e+01
     3.00000e+00     0.00000e+00     3.00000e+00     1.38026e+01     3.00000e+00     2.30771e+01     3.00000e+00     2.91465e+01
     3.50000e+00     2.39349e+01     3.50000e+00     3.90726e+01     3.50000e+00     4.87246e+01     3.50000e+00     5.55447e+01
     4.00000e+00     5.62536e+01     4.00000e+00     7.21987e+01     4.00000e+00     8.30934e+01     4.00000e+00     9.52664e+01
     4.50000e+00     9.74762e+01     4.50000e+00     1.15039e+02     4.50000e+00     1.29047e+02     4.50000e+00     1.32316e+02
     5.00000e+00     1.48244e+02     5.00000e+00     1.69104e+02     5.00000e+00     1.83598e+02     5.00000e+00     1.79609e+02
     5.50000e+00     2.11153e+02     5.50000e+00     2.37076e+02     5.50000e+00     2.45677e+02     5.50000e+00     2.31870e+02
     6.00000e+00     2.87004e+02     6.00000e+00     3.24003e+02     6.00000e+00     3.14323e+02     6.00000e+00     2.88708e+02
     6.50000e+00     3.77757e+02     6.50000e+00     4.09201e+02     6.50000e+00     3.88460e+02     6.50000e+00     3.46320e+02
     7.00000e+00     4.86044e+02     7.00000e+00     5.06670e+02     7.00000e+00     4.68783e+02     7.00000e+00     3.93602e+02
     7.50000e+00     6.14483e+02     7.50000e+00     6.13177e+02     7.50000e+00     5.36786e+02     7.50000e+00     4.26319e+02
     8.00000e+00     7.73263e+02     8.00000e+00     7.27906e+02     8.00000e+00     5.82236e+02     8.00000e+00     4.43357e+02
     8.50000e+00     9.05838e+02     8.50000e+00     8.11314e+02     8.50000e+00     5.99860e+02     8.50000e+00     4.46293e+02
     9.00000e+00     1.07239e+03     9.00000e+00     8.50706e+02     9.00000e+00     5.98187e+02     9.00000e+00     4.42093e+02
     9.50000e+00     1.22903e+03     9.50000e+00     8.47479e+02     9.50000e+00     5.90811e+02     9.50000e+00     4.34455e+02
     1.00000e+01     1.28601e+03     1.00000e+01     8.32744e+02     1.00000e+01     5.77416e+02     1.00000e+01     4.23958e+02

