Export File Created with QBlade v0.963 32bit on 02.12.2021 at 08:49:13
                 400 RPM (TSR 5)                 400 RPM (TSR 6)                 400 RPM (TSR 7)                 400 RPM (TSR 8)
 V [m/s] P [W] V [m/s] P [W] V [m/s] P [W] V [m/s] P [W]
     1.00000e+00     0.00000e+00     1.00000e+00     0.00000e+00     1.00000e+00     0.00000e+00     1.00000e+00     0.00000e+00
     1.50000e+00     0.00000e+00     1.50000e+00     0.00000e+00     1.50000e+00     0.00000e+00     1.50000e+00     0.00000e+00
     2.00000e+00     0.00000e+00     2.00000e+00     0.00000e+00     2.00000e+00     0.00000e+00     2.00000e+00     0.00000e+00
     2.50000e+00     0.00000e+00     2.50000e+00     0.00000e+00     2.50000e+00     0.00000e+00     2.50000e+00     0.00000e+00
     3.00000e+00     0.00000e+00     3.00000e+00     0.00000e+00     3.00000e+00     0.00000e+00     3.00000e+00     7.32855e+00
     3.50000e+00     0.00000e+00     3.50000e+00     0.00000e+00     3.50000e+00     2.02161e+01     3.50000e+00     3.37634e+01
     4.00000e+00     0.00000e+00     4.00000e+00     3.27174e+01     4.00000e+00     5.47012e+01     4.00000e+00     6.90880e+01
     4.50000e+00     4.10366e+01     4.50000e+00     7.61434e+01     4.50000e+00     9.87795e+01     4.50000e+00     1.14265e+02
     5.00000e+00     9.23413e+01     5.00000e+00     1.29232e+02     5.00000e+00     1.53463e+02     5.00000e+00     1.72506e+02
     5.50000e+00     1.55706e+02     5.50000e+00     1.94830e+02     5.50000e+00     2.21162e+02     5.50000e+00     2.38765e+02
     6.00000e+00     2.31055e+02     6.00000e+00     2.72684e+02     6.00000e+00     3.05889e+02     6.00000e+00     3.13637e+02
     6.50000e+00     3.18642e+02     6.50000e+00     3.65895e+02     6.50000e+00     4.22404e+02     6.50000e+00     3.96376e+02
     7.00000e+00     4.21767e+02     7.00000e+00     4.76406e+02     7.00000e+00     5.29802e+02     7.00000e+00     4.86564e+02
     7.50000e+00     5.41792e+02     7.50000e+00     6.08116e+02     7.50000e+00     6.21702e+02     7.50000e+00     5.82011e+02
     8.00000e+00     6.80307e+02     8.00000e+00     7.68007e+02     8.00000e+00     7.45062e+02     8.00000e+00     6.84344e+02
     8.50000e+00     8.37964e+02     8.50000e+00     9.14908e+02     8.50000e+00     8.74514e+02     8.50000e+00     7.88244e+02
     9.00000e+00     1.01937e+03     9.00000e+00     1.08382e+03     9.00000e+00     1.01458e+03     9.00000e+00     8.80734e+02
     9.50000e+00     1.22261e+03     9.50000e+00     1.26095e+03     9.50000e+00     1.15589e+03     9.50000e+00     9.56333e+02
     1.00000e+01     1.45655e+03     1.00000e+01     1.45346e+03     1.00000e+01     1.27238e+03     1.00000e+01     1.01053e+03

