Export File Created with QBlade v0.963 32bit on 02.12.2021 at 08:51:18
                 500 RPM (TSR 5)                 500 RPM (TSR 6)                 500 RPM (TSR 7)                 500 RPM (TSR 8)
 V [m/s] P [W] V [m/s] P [W] V [m/s] P [W] V [m/s] P [W]
     1.00000e+00     0.00000e+00     1.00000e+00     0.00000e+00     1.00000e+00     0.00000e+00     1.00000e+00     0.00000e+00
     1.50000e+00     0.00000e+00     1.50000e+00     0.00000e+00     1.50000e+00     0.00000e+00     1.50000e+00     0.00000e+00
     2.00000e+00     0.00000e+00     2.00000e+00     0.00000e+00     2.00000e+00     0.00000e+00     2.00000e+00     0.00000e+00
     2.50000e+00     0.00000e+00     2.50000e+00     0.00000e+00     2.50000e+00     0.00000e+00     2.50000e+00     0.00000e+00
     3.00000e+00     0.00000e+00     3.00000e+00     0.00000e+00     3.00000e+00     0.00000e+00     3.00000e+00     0.00000e+00
     3.50000e+00     0.00000e+00     3.50000e+00     0.00000e+00     3.50000e+00     0.00000e+00     3.50000e+00     0.00000e+00
     4.00000e+00     0.00000e+00     4.00000e+00     0.00000e+00     4.00000e+00     7.18813e+00     4.00000e+00     3.32142e+01
     4.50000e+00     0.00000e+00     4.50000e+00     1.09244e+01     4.50000e+00     5.08660e+01     4.50000e+00     7.86329e+01
     5.00000e+00     0.00000e+00     5.00000e+00     6.39011e+01     5.00000e+00     1.06838e+02     5.00000e+00     1.34937e+02
     5.50000e+00     6.20649e+01     5.50000e+00     1.29616e+02     5.50000e+00     1.74645e+02     5.50000e+00     2.03569e+02
     6.00000e+00     1.37328e+02     6.00000e+00     2.08171e+02     6.00000e+00     2.54039e+02     6.00000e+00     2.87705e+02
     6.50000e+00     2.26781e+02     6.50000e+00     3.00167e+02     6.50000e+00     3.48901e+02     6.50000e+00     3.98910e+02
     7.00000e+00     3.31976e+02     7.00000e+00     4.07184e+02     7.00000e+00     4.62373e+02     7.00000e+00     4.94277e+02
     7.50000e+00     4.51279e+02     7.50000e+00     5.32587e+02     7.50000e+00     5.97440e+02     7.50000e+00     6.12573e+02
     8.00000e+00     5.85474e+02     8.00000e+00     6.74815e+02     8.00000e+00     7.73260e+02     8.00000e+00     7.40904e+02
     8.50000e+00     7.39442e+02     8.50000e+00     8.39336e+02     8.50000e+00     9.04907e+02     8.50000e+00     8.77919e+02
     9.00000e+00     9.12407e+02     9.00000e+00     1.02841e+03     9.00000e+00     1.07752e+03     9.00000e+00     1.02387e+03
     9.50000e+00     1.10896e+03     9.50000e+00     1.24505e+03     9.50000e+00     1.26137e+03     9.50000e+00     1.17547e+03
     1.00000e+01     1.32872e+03     1.00000e+01     1.50001e+03     1.00000e+01     1.45520e+03     1.00000e+01     1.33661e+03

