Export File Created with QBlade v0.963 32bit on 23.12.2021 at 20:17:37
                   5 TSR 300 RPM                   6 TSR 300 RPM                   7 TSR 300 RPM                   8 TSR 300 RPM
 V [m/s] P [W] V [m/s] P [W] V [m/s] P [W] V [m/s] P [W]
     1.00000e+00     0.00000e+00     1.00000e+00     0.00000e+00     1.00000e+00     0.00000e+00     1.00000e+00     0.00000e+00
     1.50000e+00     0.00000e+00     1.50000e+00     0.00000e+00     1.50000e+00     0.00000e+00     1.50000e+00     0.00000e+00
     2.00000e+00     0.00000e+00     2.00000e+00     0.00000e+00     2.00000e+00     0.00000e+00     2.00000e+00     0.00000e+00
     2.50000e+00     0.00000e+00     2.50000e+00     0.00000e+00     2.50000e+00     4.88377e+00     2.50000e+00     1.01427e+01
     3.00000e+00     1.43510e+00     3.00000e+00     1.41606e+01     3.00000e+00     2.26300e+01     3.00000e+00     2.85083e+01
     3.50000e+00     2.43774e+01     3.50000e+00     3.82793e+01     3.50000e+00     4.79882e+01     3.50000e+00     5.55159e+01
     4.00000e+00     5.52218e+01     4.00000e+00     7.12579e+01     4.00000e+00     8.29838e+01     4.00000e+00     9.37435e+01
     4.50000e+00     9.56366e+01     4.50000e+00     1.14539e+02     4.50000e+00     1.31335e+02     4.50000e+00     1.32630e+02
     5.00000e+00     1.47627e+02     5.00000e+00     1.70438e+02     5.00000e+00     1.86916e+02     5.00000e+00     1.78352e+02
     5.50000e+00     2.11559e+02     5.50000e+00     2.41912e+02     5.50000e+00     2.45695e+02     5.50000e+00     2.25573e+02
     6.00000e+00     2.90190e+02     6.00000e+00     3.39236e+02     6.00000e+00     3.08426e+02     6.00000e+00     2.66173e+02
     6.50000e+00     3.85006e+02     6.50000e+00     4.10545e+02     6.50000e+00     3.63645e+02     6.50000e+00     3.02810e+02
     7.00000e+00     4.97321e+02     7.00000e+00     4.92196e+02     7.00000e+00     4.12813e+02     7.00000e+00     3.35343e+02
     7.50000e+00     6.46527e+02     7.50000e+00     5.66781e+02     7.50000e+00     4.56061e+02     7.50000e+00     3.63645e+02
     8.00000e+00     7.54053e+02     8.00000e+00     6.29504e+02     8.00000e+00     4.94688e+02     8.00000e+00     3.88540e+02
     8.50000e+00     8.70550e+02     8.50000e+00     6.86277e+02     8.50000e+00     5.27453e+02     8.50000e+00     4.09913e+02
     9.00000e+00     9.64938e+02     9.00000e+00     7.35286e+02     9.00000e+00     5.55980e+02     9.00000e+00     4.30426e+02
     9.50000e+00     1.04496e+03     9.50000e+00     7.79991e+02     9.50000e+00     5.85051e+02     9.50000e+00     4.50280e+02
     1.00000e+01     1.12073e+03     1.00000e+01     8.21453e+02     1.00000e+01     6.09727e+02     1.00000e+01     4.66624e+02

