Export File Created with QBlade v0.963 32bit on 23.12.2021 at 20:19:37
                   5 TSR 400 RPM                   6 TSR 400 RPM                   7 TSR 400 RPM                   8 TSR 400 RPM
 V [m/s] P [W] V [m/s] P [W] V [m/s] P [W] V [m/s] P [W]
     1.00000e+00     0.00000e+00     1.00000e+00     0.00000e+00     1.00000e+00     0.00000e+00     1.00000e+00     0.00000e+00
     1.50000e+00     0.00000e+00     1.50000e+00     0.00000e+00     1.50000e+00     0.00000e+00     1.50000e+00     0.00000e+00
     2.00000e+00     0.00000e+00     2.00000e+00     0.00000e+00     2.00000e+00     0.00000e+00     2.00000e+00     0.00000e+00
     2.50000e+00     0.00000e+00     2.50000e+00     0.00000e+00     2.50000e+00     0.00000e+00     2.50000e+00     0.00000e+00
     3.00000e+00     0.00000e+00     3.00000e+00     0.00000e+00     3.00000e+00     0.00000e+00     3.00000e+00     8.19229e+00
     3.50000e+00     0.00000e+00     3.50000e+00     2.08131e+00     3.50000e+00     2.07378e+01     3.50000e+00     3.33507e+01
     4.00000e+00     3.40173e+00     4.00000e+00     3.35658e+01     4.00000e+00     5.36415e+01     4.00000e+00     6.75752e+01
     4.50000e+00     4.23234e+01     4.50000e+00     7.47403e+01     4.50000e+00     9.67368e+01     4.50000e+00     1.13725e+02
     5.00000e+00     9.17595e+01     5.00000e+00     1.27308e+02     5.00000e+00     1.52379e+02     5.00000e+00     1.74811e+02
     5.50000e+00     1.52573e+02     5.50000e+00     1.92147e+02     5.50000e+00     2.21413e+02     5.50000e+00     2.60707e+02
     6.00000e+00     2.26694e+02     6.00000e+00     2.71499e+02     6.00000e+00     3.11313e+02     6.00000e+00     3.14382e+02
     6.50000e+00     3.17044e+02     6.50000e+00     3.67400e+02     6.50000e+00     4.04855e+02     6.50000e+00     3.94730e+02
     7.00000e+00     4.22220e+02     7.00000e+00     4.83155e+02     7.00000e+00     5.08471e+02     7.00000e+00     4.79981e+02
     7.50000e+00     5.44181e+02     7.50000e+00     6.24730e+02     7.50000e+00     6.20397e+02     7.50000e+00     5.60304e+02
     8.00000e+00     6.87858e+02     8.00000e+00     8.04115e+02     8.00000e+00     7.31083e+02     8.00000e+00     6.30929e+02
     8.50000e+00     8.52525e+02     8.50000e+00     9.20279e+02     8.50000e+00     8.30283e+02     8.50000e+00     6.97066e+02
     9.00000e+00     1.03839e+03     9.00000e+00     1.07016e+03     9.00000e+00     9.22673e+02     9.00000e+00     7.57344e+02
     9.50000e+00     1.25315e+03     9.50000e+00     1.21423e+03     9.50000e+00     1.00552e+03     9.50000e+00     8.12616e+02
     1.00000e+01     1.53251e+03     1.00000e+01     1.34348e+03     1.00000e+01     1.08103e+03     1.00000e+01     8.61973e+02

