Export File Created with QBlade v0.963 32bit on 02.12.2021 at 09:33:23
                 200 RPM (TSR 5)                 200 RPM (TSR 6)                 200 RPM (TSR 7)                 200 RPM (TSR 8)
 V [m/s] P [W] V [m/s] P [W] V [m/s] P [W] V [m/s] P [W]
     1.00000e+00     0.00000e+00     1.00000e+00     0.00000e+00     1.00000e+00     0.00000e+00     1.00000e+00     0.00000e+00
     1.50000e+00     0.00000e+00     1.50000e+00     0.00000e+00     1.50000e+00     0.00000e+00     1.50000e+00     0.00000e+00
     2.00000e+00     0.00000e+00     2.00000e+00     2.29713e+00     2.00000e+00     5.21907e+00     2.00000e+00     7.29963e+00
     2.50000e+00     8.65649e+00     2.50000e+00     1.37202e+01     2.50000e+00     1.75601e+01     2.50000e+00     2.05619e+01
     3.00000e+00     2.51948e+01     3.00000e+00     3.20881e+01     3.00000e+00     3.65616e+01     3.00000e+00     4.11602e+01
     3.50000e+00     4.97970e+01     3.50000e+00     5.73169e+01     3.50000e+00     6.40028e+01     3.50000e+00     6.16072e+01
     4.00000e+00     8.16826e+01     4.00000e+00     9.09611e+01     4.00000e+00     9.34049e+01     4.00000e+00     8.83218e+01
     4.50000e+00     1.22364e+02     4.50000e+00     1.38217e+02     4.50000e+00     1.29929e+02     4.50000e+00     1.18321e+02
     5.00000e+00     1.72402e+02     5.00000e+00     1.82920e+02     5.00000e+00     1.70393e+02     5.00000e+00     1.41141e+02
     5.50000e+00     2.37371e+02     5.50000e+00     2.38254e+02     5.50000e+00     1.99890e+02     5.50000e+00     1.54178e+02
     6.00000e+00     3.13391e+02     6.00000e+00     2.88480e+02     6.00000e+00     2.11016e+02     6.00000e+00     1.57468e+02
     6.50000e+00     3.97204e+02     6.50000e+00     2.98960e+02     6.50000e+00     2.09960e+02     6.50000e+00     1.53988e+02
     7.00000e+00     4.61553e+02     7.00000e+00     2.92472e+02     7.00000e+00     2.00389e+02     7.00000e+00     1.46330e+02
     7.50000e+00     4.40423e+02     7.50000e+00     2.75322e+02     7.50000e+00     1.87580e+02     7.50000e+00     1.36799e+02
     8.00000e+00     4.11140e+02     8.00000e+00     2.54622e+02     8.00000e+00     1.75015e+02     8.00000e+00     1.28698e+02
     8.50000e+00     3.75596e+02     8.50000e+00     2.36449e+02     8.50000e+00     1.65367e+02     8.50000e+00     1.22816e+02
     9.00000e+00     3.46277e+02     9.00000e+00     2.25108e+02     9.00000e+00     1.60344e+02     9.00000e+00     1.20884e+02
     9.50000e+00     3.29356e+02     9.50000e+00     2.22550e+02     9.50000e+00     1.62935e+02     9.50000e+00     1.25589e+02
     1.00000e+01     3.37407e+02     1.00000e+01     2.37496e+02     1.00000e+01     1.73584e+02     1.00000e+01     1.31628e+02

