Export File Created with QBlade v0.963 32bit on 02.12.2021 at 09:35:01
                 300 RPM (TSR 5)                 300 RPM (TSR 6)                 300 RPM (TSR 7)                 300 RPM (TSR 8)
 V [m/s] P [W] V [m/s] P [W] V [m/s] P [W] V [m/s] P [W]
     1.00000e+00     0.00000e+00     1.00000e+00     0.00000e+00     1.00000e+00     0.00000e+00     1.00000e+00     0.00000e+00
     1.50000e+00     0.00000e+00     1.50000e+00     0.00000e+00     1.50000e+00     0.00000e+00     1.50000e+00     0.00000e+00
     2.00000e+00     0.00000e+00     2.00000e+00     0.00000e+00     2.00000e+00     0.00000e+00     2.00000e+00     0.00000e+00
     2.50000e+00     0.00000e+00     2.50000e+00     0.00000e+00     2.50000e+00     2.23648e-01     2.50000e+00     6.46921e+00
     3.00000e+00     0.00000e+00     3.00000e+00     7.75281e+00     3.00000e+00     1.76144e+01     3.00000e+00     2.46363e+01
     3.50000e+00     1.51917e+01     3.50000e+00     3.14398e+01     3.50000e+00     4.27806e+01     3.50000e+00     5.22159e+01
     4.00000e+00     4.57601e+01     4.00000e+00     6.41747e+01     4.00000e+00     7.87221e+01     4.00000e+00     8.88218e+01
     4.50000e+00     8.50325e+01     4.50000e+00     1.08297e+02     4.50000e+00     1.23395e+02     4.50000e+00     1.38916e+02
     5.00000e+00     1.37023e+02     5.00000e+00     1.61906e+02     5.00000e+00     1.80678e+02     5.00000e+00     1.81668e+02
     5.50000e+00     2.01398e+02     5.50000e+00     2.27309e+02     5.50000e+00     2.44202e+02     5.50000e+00     2.36230e+02
     6.00000e+00     2.75679e+02     6.00000e+00     3.06994e+02     6.00000e+00     3.15242e+02     6.00000e+00     2.98086e+02
     6.50000e+00     3.63344e+02     6.50000e+00     4.09092e+02     6.50000e+00     3.95437e+02     6.50000e+00     3.65404e+02
     7.00000e+00     4.66175e+02     7.00000e+00     5.02671e+02     7.00000e+00     4.82922e+02     7.00000e+00     4.29924e+02
     7.50000e+00     5.81858e+02     7.50000e+00     6.17354e+02     7.50000e+00     5.75076e+02     7.50000e+00     4.76349e+02
     8.00000e+00     7.19180e+02     8.00000e+00     7.39754e+02     8.00000e+00     6.50122e+02     8.00000e+00     5.08718e+02
     8.50000e+00     8.99188e+02     8.50000e+00     8.69369e+02     8.50000e+00     6.90066e+02     8.50000e+00     5.27393e+02
     9.00000e+00     1.05769e+03     9.00000e+00     9.73621e+02     9.00000e+00     7.12178e+02     9.00000e+00     5.31455e+02
     9.50000e+00     1.24340e+03     9.50000e+00     1.00442e+03     9.50000e+00     7.14082e+02     9.50000e+00     5.24766e+02
     1.00000e+01     1.43622e+03     1.00000e+01     1.00886e+03     1.00000e+01     6.99300e+02     1.00000e+01     5.12162e+02

