Export File Created with QBlade v0.963 32bit on 02.12.2021 at 09:39:23
                 500 RPM (TSR 5)                 500 RPM (TSR 6)                 500 RPM (TSR 7)                 500 RPM (TSR 8)
 V [m/s] P [W] V [m/s] P [W] V [m/s] P [W] V [m/s] P [W]
     1.00000e+00     0.00000e+00     1.00000e+00     0.00000e+00     1.00000e+00     0.00000e+00     1.00000e+00     0.00000e+00
     1.50000e+00     0.00000e+00     1.50000e+00     0.00000e+00     1.50000e+00     0.00000e+00     1.50000e+00     0.00000e+00
     2.00000e+00     0.00000e+00     2.00000e+00     0.00000e+00     2.00000e+00     0.00000e+00     2.00000e+00     0.00000e+00
     2.50000e+00     0.00000e+00     2.50000e+00     0.00000e+00     2.50000e+00     0.00000e+00     2.50000e+00     0.00000e+00
     3.00000e+00     0.00000e+00     3.00000e+00     0.00000e+00     3.00000e+00     0.00000e+00     3.00000e+00     0.00000e+00
     3.50000e+00     0.00000e+00     3.50000e+00     0.00000e+00     3.50000e+00     0.00000e+00     3.50000e+00     0.00000e+00
     4.00000e+00     0.00000e+00     4.00000e+00     0.00000e+00     4.00000e+00     0.00000e+00     4.00000e+00     1.66190e+01
     4.50000e+00     0.00000e+00     4.50000e+00     0.00000e+00     4.50000e+00     2.97961e+01     4.50000e+00     5.94380e+01
     5.00000e+00     0.00000e+00     5.00000e+00     3.58927e+01     5.00000e+00     8.15480e+01     5.00000e+00     1.14057e+02
     5.50000e+00     2.62229e+01     5.50000e+00     9.73015e+01     5.50000e+00     1.45905e+02     5.50000e+00     1.84735e+02
     6.00000e+00     9.52239e+01     6.00000e+00     1.72017e+02     6.00000e+00     2.27240e+02     6.00000e+00     2.72558e+02
     6.50000e+00     1.79569e+02     6.50000e+00     2.61761e+02     6.50000e+00     3.27805e+02     6.50000e+00     3.74179e+02
     7.00000e+00     2.79005e+02     7.00000e+00     3.70920e+02     7.00000e+00     4.42523e+02     7.00000e+00     4.98351e+02
     7.50000e+00     3.93669e+02     7.50000e+00     5.01376e+02     7.50000e+00     5.71275e+02     7.50000e+00     6.43129e+02
     8.00000e+00     5.31385e+02     8.00000e+00     6.47417e+02     8.00000e+00     7.21125e+02     8.00000e+00     7.51452e+02
     8.50000e+00     6.90222e+02     8.50000e+00     8.05570e+02     8.50000e+00     9.03922e+02     8.50000e+00     8.88745e+02
     9.00000e+00     8.69099e+02     9.00000e+00     9.88801e+02     9.00000e+00     1.11625e+03     9.00000e+00     1.04069e+03
     9.50000e+00     1.06313e+03     9.50000e+00     1.19149e+03     9.50000e+00     1.26335e+03     9.50000e+00     1.20406e+03
     1.00000e+01     1.27629e+03     1.00000e+01     1.42127e+03     1.00000e+01     1.45945e+03     1.00000e+01     1.38003e+03

