Export File Created with QBlade v0.963 32bit on 02.12.2021 at 09:10:32
                 200 RPM (TSR 5)                 200 RPM (TSR 6)                 200 RPM (TSR 7)                 200 RPM (TSR 8)
 V [m/s] P [W] V [m/s] P [W] V [m/s] P [W] V [m/s] P [W]
     1.00000e+00     0.00000e+00     1.00000e+00     0.00000e+00     1.00000e+00     0.00000e+00     1.00000e+00     0.00000e+00
     1.50000e+00     0.00000e+00     1.50000e+00     0.00000e+00     1.50000e+00     0.00000e+00     1.50000e+00     7.92363e-01
     2.00000e+00     0.00000e+00     2.00000e+00     3.94050e+00     2.00000e+00     6.53718e+00     2.00000e+00     8.25904e+00
     2.50000e+00     1.12396e+01     2.50000e+00     1.56951e+01     2.50000e+00     1.88803e+01     2.50000e+00     2.20615e+01
     3.00000e+00     2.83302e+01     3.00000e+00     3.39538e+01     3.00000e+00     3.91440e+01     3.00000e+00     3.85969e+01
     3.50000e+00     5.26477e+01     3.50000e+00     6.03181e+01     3.50000e+00     6.29252e+01     3.50000e+00     5.97876e+01
     4.00000e+00     8.57797e+01     4.00000e+00     9.92356e+01     4.00000e+00     9.21084e+01     4.00000e+00     8.36960e+01
     4.50000e+00     1.29839e+02     4.50000e+00     1.35112e+02     4.50000e+00     1.24325e+02     4.50000e+00     1.07001e+02
     5.00000e+00     1.88219e+02     5.00000e+00     1.79637e+02     5.00000e+00     1.54743e+02     5.00000e+00     1.25843e+02
     5.50000e+00     2.46672e+02     5.50000e+00     2.22824e+02     5.50000e+00     1.77569e+02     5.50000e+00     1.36735e+02
     6.00000e+00     3.14947e+02     6.00000e+00     2.53966e+02     6.00000e+00     1.89227e+02     6.00000e+00     1.43465e+02
     6.50000e+00     3.69526e+02     6.50000e+00     2.70601e+02     6.50000e+00     1.96276e+02     6.50000e+00     1.47906e+02
     7.00000e+00     4.06262e+02     7.00000e+00     2.79891e+02     7.00000e+00     2.00958e+02     7.00000e+00     1.50124e+02
     7.50000e+00     4.25044e+02     7.50000e+00     2.83348e+02     7.50000e+00     2.00778e+02     7.50000e+00     1.49355e+02
     8.00000e+00     4.27666e+02     8.00000e+00     2.80220e+02     8.00000e+00     1.97633e+02     8.00000e+00     1.46143e+02
     8.50000e+00     4.20934e+02     8.50000e+00     2.71754e+02     8.50000e+00     1.90175e+02     8.50000e+00     1.40150e+02
     9.00000e+00     4.01665e+02     9.00000e+00     2.57129e+02     9.00000e+00     1.79334e+02     9.00000e+00     1.32112e+02
     9.50000e+00     3.74628e+02     9.50000e+00     2.37857e+02     9.50000e+00     1.65358e+02     9.50000e+00     1.21373e+02
     1.00000e+01     3.37620e+02     1.00000e+01     2.17430e+02     1.00000e+01     1.55882e+02     1.00000e+01     1.17555e+02

