Export File Created with QBlade v0.963 32bit on 02.12.2021 at 09:12:22
                 300 RPM (TSR 5)                 300 RPM (TSR 6)                 300 RPM (TSR 7)                 300 RPM (TSR 8)
 V [m/s] P [W] V [m/s] P [W] V [m/s] P [W] V [m/s] P [W]
     1.00000e+00     0.00000e+00     1.00000e+00     0.00000e+00     1.00000e+00     0.00000e+00     1.00000e+00     0.00000e+00
     1.50000e+00     0.00000e+00     1.50000e+00     0.00000e+00     1.50000e+00     0.00000e+00     1.50000e+00     0.00000e+00
     2.00000e+00     0.00000e+00     2.00000e+00     0.00000e+00     2.00000e+00     0.00000e+00     2.00000e+00     0.00000e+00
     2.50000e+00     0.00000e+00     2.50000e+00     0.00000e+00     2.50000e+00     4.01618e+00     2.50000e+00     9.48600e+00
     3.00000e+00     0.00000e+00     3.00000e+00     1.32992e+01     3.00000e+00     2.20630e+01     3.00000e+00     2.78743e+01
     3.50000e+00     2.33644e+01     3.50000e+00     3.76644e+01     3.50000e+00     4.73836e+01     3.50000e+00     5.54331e+01
     4.00000e+00     5.48136e+01     4.00000e+00     7.08086e+01     4.00000e+00     8.25676e+01     4.00000e+00     9.41984e+01
     4.50000e+00     9.56143e+01     4.50000e+00     1.14594e+02     4.50000e+00     1.32111e+02     4.50000e+00     1.30265e+02
     5.00000e+00     1.46969e+02     5.00000e+00     1.70136e+02     5.00000e+00     1.95532e+02     5.00000e+00     1.76735e+02
     5.50000e+00     2.11461e+02     5.50000e+00     2.42274e+02     5.50000e+00     2.43646e+02     5.50000e+00     2.28018e+02
     6.00000e+00     2.89506e+02     6.00000e+00     3.34920e+02     6.00000e+00     3.10866e+02     6.00000e+00     2.82474e+02
     6.50000e+00     3.84850e+02     6.50000e+00     4.09328e+02     6.50000e+00     3.82613e+02     6.50000e+00     3.36039e+02
     7.00000e+00     4.95954e+02     7.00000e+00     5.04162e+02     7.00000e+00     4.56201e+02     7.00000e+00     3.84652e+02
     7.50000e+00     6.35241e+02     7.50000e+00     6.06273e+02     7.50000e+00     5.22258e+02     7.50000e+00     4.24722e+02
     8.00000e+00     7.60454e+02     8.00000e+00     7.07938e+02     8.00000e+00     5.76564e+02     8.00000e+00     4.50897e+02
     8.50000e+00     9.07405e+02     8.50000e+00     7.90893e+02     8.50000e+00     6.14170e+02     8.50000e+00     4.71209e+02
     9.00000e+00     1.06295e+03     9.00000e+00     8.57136e+02     9.00000e+00     6.38643e+02     9.00000e+00     4.84193e+02
     9.50000e+00     1.19254e+03     9.50000e+00     9.01467e+02     9.50000e+00     6.54943e+02     9.50000e+00     4.95097e+02
     1.00000e+01     1.29227e+03     1.00000e+01     9.23472e+02     1.00000e+01     6.68967e+02     1.00000e+01     5.03551e+02

