Export File Created with QBlade v0.963 32bit on 02.12.2021 at 09:15:34
                 500 RPM (TSR 5)                 500 RPM (TSR 6)                 500 RPM (TSR 7)                 500 RPM (TSR 8)
 V [m/s] P [W] V [m/s] P [W] V [m/s] P [W] V [m/s] P [W]
     1.00000e+00     0.00000e+00     1.00000e+00     0.00000e+00     1.00000e+00     0.00000e+00     1.00000e+00     0.00000e+00
     1.50000e+00     0.00000e+00     1.50000e+00     0.00000e+00     1.50000e+00     0.00000e+00     1.50000e+00     0.00000e+00
     2.00000e+00     0.00000e+00     2.00000e+00     0.00000e+00     2.00000e+00     0.00000e+00     2.00000e+00     0.00000e+00
     2.50000e+00     0.00000e+00     2.50000e+00     0.00000e+00     2.50000e+00     0.00000e+00     2.50000e+00     0.00000e+00
     3.00000e+00     0.00000e+00     3.00000e+00     0.00000e+00     3.00000e+00     0.00000e+00     3.00000e+00     0.00000e+00
     3.50000e+00     0.00000e+00     3.50000e+00     0.00000e+00     3.50000e+00     0.00000e+00     3.50000e+00     0.00000e+00
     4.00000e+00     0.00000e+00     4.00000e+00     0.00000e+00     4.00000e+00     5.53893e+00     4.00000e+00     3.03102e+01
     4.50000e+00     0.00000e+00     4.50000e+00     9.40376e+00     4.50000e+00     4.84570e+01     4.50000e+00     7.39676e+01
     5.00000e+00     0.00000e+00     5.00000e+00     6.15703e+01     5.00000e+00     1.02143e+02     5.00000e+00     1.29047e+02
     5.50000e+00     6.01463e+01     5.50000e+00     1.24694e+02     5.50000e+00     1.67534e+02     5.50000e+00     1.99669e+02
     6.00000e+00     1.33734e+02     6.00000e+00     2.01696e+02     6.00000e+00     2.48207e+02     6.00000e+00     2.89757e+02
     6.50000e+00     2.20997e+02     6.50000e+00     2.94202e+02     6.50000e+00     3.45984e+02     6.50000e+00     3.80851e+02
     7.00000e+00     3.22470e+02     7.00000e+00     4.02398e+02     7.00000e+00     4.63591e+02     7.00000e+00     4.99226e+02
     7.50000e+00     4.42659e+02     7.50000e+00     5.30529e+02     7.50000e+00     6.11625e+02     7.50000e+00     6.03077e+02
     8.00000e+00     5.77676e+02     8.00000e+00     6.76546e+02     8.00000e+00     7.41995e+02     8.00000e+00     7.28935e+02
     8.50000e+00     7.35894e+02     8.50000e+00     8.47288e+02     8.50000e+00     9.15416e+02     8.50000e+00     8.63845e+02
     9.00000e+00     9.16134e+02     9.00000e+00     1.04547e+03     9.00000e+00     1.06936e+03     9.00000e+00     1.00627e+03
     9.50000e+00     1.11955e+03     9.50000e+00     1.27470e+03     9.50000e+00     1.25047e+03     9.50000e+00     1.15576e+03
     1.00000e+01     1.34031e+03     1.00000e+01     1.55056e+03     1.00000e+01     1.43919e+03     1.00000e+01     1.30775e+03

